# # Time 	 Separation 	 Orbital Phase 
# 
2.583333333000000127e-03	3.000000000000000000e+00	0.000000000000000000e+00
5.166666666999999817e-03	3.000000000000000000e+00	1.924048008999999901e-14
7.749999999999999944e-03	3.000000000000000000e+00	1.632109260233333602e-13
1.033333332999999965e-02	3.000000000000000000e+00	5.210216986999999476e-13
1.291666667000000018e-02	3.000000000000000000e+00	2.433271892333333520e-12
1.549999999999999989e-02	3.000000000000000000e+00	6.009422719666667387e-12
1.808333332999999959e-02	3.000000000000000000e+00	2.298972025666666664e-11
2.066666667000000013e-02	3.000000000000000000e+00	5.808725161666666164e-11
2.324999999999999983e-02	3.000000000000000000e+00	2.286004923666666675e-10
2.583333332999999954e-02	3.000000000000000000e+00	4.723276719999999088e-10
2.841666667000000007e-02	3.000000000000000000e+00	1.356614046666666632e-09
3.099999999999999978e-02	2.999999998999999917e+00	2.379031960459677758e-09
3.358333332999999948e-02	2.999999997999999835e+00	5.110733692407156678e-09
3.616666667000000002e-02	2.999999996999999752e+00	8.056913322056914407e-09
3.874999999999999972e-02	2.999999994000000392e+00	1.451804395236942047e-08
4.133333332999999943e-02	2.999999991000000588e+00	2.131520508061227625e-08
4.391666666999999996e-02	2.999999986000001506e+00	3.452722469112703795e-08
4.649999999999999967e-02	2.999999980000003674e+00	4.821679754811194872e-08
4.908333332999999937e-02	2.999999970000008176e+00	7.259771091931031448e-08
5.166666666999999991e-02	2.999999959000014371e+00	9.761271633404015232e-08
5.424999999999999961e-02	2.999999942000028952e+00	1.392098465913894679e-07
5.683333332999999932e-02	2.999999925000049306e+00	1.816142973070220931e-07
5.941666666999999985e-02	2.999999898000092369e+00	2.483276045431335050e-07
6.199999999999999956e-02	2.999999870000150004e+00	3.160295534279367925e-07
6.458333333000000620e-02	2.999999828000261992e+00	4.177615223849697169e-07
6.716666666999999979e-02	2.999999786000406843e+00	5.206674063075612398e-07
6.975000000000000644e-02	2.999999725000671802e+00	6.694256054305805414e-07
7.233333332999999921e-02	2.999999664001007371e+00	8.195472265891058552e-07
7.491666667000000668e-02	2.999999578001589562e+00	1.029526828819743415e-06
7.749999999999999944e-02	2.999999492002310753e+00	1.241062198152561595e-06
8.008333333000000609e-02	2.999999375003504998e+00	1.528700943144839249e-06
8.266666666999999968e-02	2.999999257004958064e+00	1.818069448606530578e-06
8.525000000000000633e-02	2.999999101007273072e+00	2.201942022178400609e-06
8.783333332999999910e-02	2.999998944010044077e+00	2.587693395195632939e-06
9.041666667000000657e-02	2.999998740014306886e+00	3.088327683087808392e-06
9.299999999999999933e-02	2.999998536019343298e+00	3.591004168061265774e-06
9.558333333000000598e-02	2.999998276026852206e+00	4.230927941348011153e-06
9.816666666999999957e-02	2.999998016035620996e+00	4.873066034682430106e-06
1.007500000000000062e-01	2.999997691048340798e+00	5.676832309874286024e-06
1.033333332999999965e-01	2.999997363063044986e+00	6.482930694405257798e-06
1.059166666999999951e-01	2.999996961083854607e+00	7.476740106131741080e-06
1.084999999999999992e-01	2.999996557107689643e+00	8.472971280610611678e-06
1.110833333000000034e-01	2.999996067140685341e+00	9.684409989292071044e-06
1.136666667000000019e-01	2.999995574178166979e+00	1.089839066832754864e-05
1.162500000000000061e-01	2.999994984229032102e+00	1.235652316281118497e-05
1.188333332999999964e-01	2.999994393286385730e+00	1.381730845367017660e-05
1.214166666999999949e-01	2.999993691362834891e+00	1.555256554912472247e-05
1.239999999999999991e-01	2.999992987448459214e+00	1.729054347447072059e-05
1.265833332999999894e-01	2.999992160560747578e+00	1.933440316483108751e-05
1.291666666999999880e-01	2.999991332685744805e+00	2.138101197027916930e-05
1.317500000000000060e-01	2.999990367847237493e+00	2.376563983032852067e-05
1.343333332999999963e-01	2.999989402026007834e+00	2.615304184940081496e-05
1.369166666999999948e-01	2.999988285253826881e+00	2.891114501960321366e-05
1.395000000000000129e-01	2.999987167504738927e+00	3.167210820602194650e-05
1.420833333000000032e-01	2.999985887820519004e+00	3.483725064355870204e-05
1.446666667000000017e-01	2.999984605166686524e+00	3.800529570421443723e-05
1.472499999999999920e-01	2.999983144597388574e+00	4.161160496879513700e-05
1.498333333000000100e-01	2.999981684067494658e+00	4.522074406211280329e-05
1.524166667000000086e-01	2.999980030646192120e+00	4.930210656037886451e-05
1.549999999999999989e-01	2.999978376275315828e+00	5.338628387879761208e-05
1.575833332999999892e-01	2.999976516042127006e+00	5.797655501214224450e-05
1.601666666999999877e-01	2.999974654872692437e+00	6.256969446645606542e-05
1.627500000000000058e-01	2.999972572875841514e+00	6.770305394841805147e-05
1.653333332999999961e-01	2.999970490958669078e+00	7.283925015323259927e-05
1.679166666999999946e-01	2.999968174255470910e+00	7.854968068147800270e-05
1.705000000000000127e-01	2.999965856650800067e+00	8.426287040526557720e-05
1.730833333000000029e-01	2.999963290308667041e+00	9.058381019180270876e-05
1.756666667000000015e-01	2.999960723087193415e+00	9.690748016058368291e-05
1.782499999999999918e-01	2.999957893184790336e+00	1.038720171934265439e-04
1.808333333000000098e-01	2.999955063428811464e+00	1.108392783393597668e-04
1.834166667000000084e-01	2.999951957057265250e+00	1.184802611907084292e-04
1.859999999999999987e-01	2.999948849861890920e+00	1.261239224197853958e-04
1.885833332999999890e-01	2.999945451125935580e+00	1.344737193686799655e-04
1.911666666999999875e-01	2.999942052600252929e+00	1.428261092528887498e-04
1.937500000000000056e-01	2.999938351619320098e+00	1.519163113826321764e-04
1.963333332999999958e-01	2.999934647887501971e+00	1.610090272558030455e-04
1.989166666999999944e-01	2.999930628796869669e+00	1.708703901264653892e-04
2.015000000000000124e-01	2.999926607999302774e+00	1.807341889320197089e-04
2.040833333000000027e-01	2.999922257951220583e+00	1.913965623890612189e-04
2.066666667000000013e-01	2.999917908245619547e+00	2.020612781301655073e-04
2.092499999999999916e-01	2.999913215410350720e+00	2.135534596065954646e-04
2.118333333000000096e-01	2.999908521972823650e+00	2.250479075795252073e-04
2.144166667000000082e-01	2.999903475539781095e+00	2.373977261927250439e-04
2.169999999999999984e-01	2.999898427565955483e+00	2.497497691608101407e-04
2.195833332999999887e-01	2.999893014744954289e+00	2.629843095797286751e-04
2.221666666999999873e-01	2.999887601451211694e+00	2.762210296941252480e-04
2.247500000000000053e-01	2.999881810473637334e+00	2.903666639138486661e-04
2.273333332999999956e-01	2.999876019098269175e+00	3.045144038305492738e-04
2.299166666999999942e-01	2.999869838218056639e+00	3.195966284639381789e-04
2.325000000000000122e-01	2.999863657022257435e+00	3.346808615775891810e-04
2.350833333000000025e-01	2.999857074516735445e+00	3.507241098625856206e-04
2.376666667000000011e-01	2.999850492785428813e+00	3.667692595746180643e-04
2.402499999999999913e-01	2.999843499956075465e+00	3.837967601605847567e-04
2.428333333000000094e-01	2.999836506998652119e+00	4.008260667204625025e-04
2.454166667000000079e-01	2.999829092171890643e+00	4.188598532926216152e-04
2.479999999999999982e-01	2.999821678323002505e+00	4.368953851741269926e-04
2.505833332999999885e-01	2.999813832851205841e+00	4.559565108094578659e-04
2.531666666999999871e-01	2.999805988471739848e+00	4.750193480440849532e-04
2.557499999999999774e-01	2.999797702734330773e+00	4.951281102550274997e-04
2.583333333000000231e-01	2.999789418212466252e+00	5.152385377518460931e-04
2.609166667000000217e-01	2.999780684616722759e+00	5.364144666443112228e-04
2.635000000000000120e-01	2.999771951368737533e+00	5.575919780612632404e-04
2.660833333000000023e-01	2.999762759350194763e+00	5.798536180498462932e-04
2.686666667000000008e-01	2.999753568820884730e+00	6.021167408686201213e-04
2.712499999999999911e-01	2.999743910843611694e+00	6.254814893674526992e-04
2.738333332999999814e-01	2.999734253506562531e+00	6.488476372977229796e-04
2.764166666999999800e-01	2.999724121063617410e+00	6.733317771395956174e-04
2.790000000000000258e-01	2.999713991421589565e+00	6.978172491504215300e-04
2.815833333000000160e-01	2.999703379035498774e+00	7.234360268784046028e-04
2.841666667000000146e-01	2.999692767620877554e+00	7.490560774869822226e-04
2.867500000000000049e-01	2.999681666844065120e+00	7.758237666517571896e-04
2.893333332999999952e-01	2.999670568219317879e+00	8.025926886939504764e-04
2.919166666999999937e-01	2.999658973634771630e+00	8.305227605476954477e-04
2.944999999999999840e-01	2.999647380393100082e+00	8.584540463666523024e-04
2.970833332999999743e-01	2.999635284615149722e+00	8.875593517346667873e-04
2.996666666999999729e-01	2.999623190381131899e+00	9.166658195635730326e-04
3.022500000000000187e-01	2.999610588055340088e+00	9.469584165246721979e-04
3.048333333000000089e-01	2.999597987484829531e+00	9.772520684296877660e-04
3.074166667000000075e-01	2.999584872286949810e+00	1.008742824138779762e-03
3.099999999999999978e-01	2.999571758066204907e+00	1.040234540985517358e-03
3.125833332999999881e-01	2.999558124701870998e+00	1.072933123438817200e-03
3.151666666999999866e-01	2.999544494547245144e+00	1.105632650194862850e-03
3.177499999999999769e-01	2.999530338753132241e+00	1.139547989845799813e-03
3.203333333000000227e-01	2.999516186411962604e+00	1.173464288344605285e-03
3.229166667000000213e-01	2.999501503956723880e+00	1.208604855197526135e-03
3.255000000000000115e-01	2.999486824208139613e+00	1.243746346879608805e-03
3.280833333000000018e-01	2.999471610891742746e+00	1.280119941152876471e-03
3.306666667000000004e-01	2.999456399546265306e+00	1.316494393986571967e-03
3.332499999999999907e-01	2.999440652199062196e+00	1.354107946976185195e-03
3.358333332999999810e-01	2.999424907097803406e+00	1.391722321207004322e-03
3.384166666999999795e-01	2.999408619580667068e+00	1.430582027094911505e-03
3.410000000000000253e-01	2.999392336595235964e+00	1.469442540039814357e-03
3.435833333000000156e-01	2.999375507799784124e+00	1.509553983285826526e-03
3.461666667000000142e-01	2.999358683832318295e+00	1.549666195650127717e-03
3.487500000000000044e-01	2.999341309679952605e+00	1.591034212613282517e-03
3.513333332999999947e-01	2.999323940662305787e+00	1.632402939155421211e-03
3.539166666999999933e-01	2.999306020102888937e+00	1.675031458088494440e-03
3.564999999999999836e-01	2.999288104995485593e+00	1.717660654056569298e-03
3.590833332999999739e-01	2.999269635007282275e+00	1.761552840640292399e-03
3.616666666999999724e-01	2.999251168798955369e+00	1.805445718308339382e-03
3.642500000000000182e-01	2.999232146389582354e+00	1.850604277131027596e-03
3.668333333000000085e-01	2.999213131098263485e+00	1.895763544099254546e-03
3.694166667000000071e-01	2.999193556304940778e+00	1.942190830979996724e-03
3.719999999999999973e-01	2.999173985977946266e+00	1.988618817816428450e-03
3.745833332999999876e-01	2.999153856866439760e+00	2.036316715870568807e-03
3.771666666999999862e-01	2.999133732579561951e+00	2.084015284477883350e-03
3.797499999999999765e-01	2.999113045242807640e+00	2.132985070240250251e-03
3.823333333000000223e-01	2.999092366099062712e+00	2.181955507392688374e-03
3.849166667000000208e-01	2.999071122656557176e+00	2.232197871179097612e-03
3.875000000000000111e-01	2.999049885785450620e+00	2.282440890355932374e-03
3.900833333000000014e-01	2.999028083383260768e+00	2.333956055634354640e-03
3.926666666999999999e-01	2.999006288940641252e+00	2.385471884434045217e-03
3.952499999999999902e-01	2.998983927751108780e+00	2.438259659029097699e-03
3.978333332999999805e-01	2.998961575918840605e+00	2.491048092141901794e-03
4.004166666999999791e-01	2.998938655139432807e+00	2.545107805113440771e-03
4.030000000000000249e-01	2.998915744124358795e+00	2.599168163023583139e-03
4.055833333000000152e-01	2.998892263976303596e+00	2.654498594367072414e-03
4.081666667000000137e-01	2.998868794008962002e+00	2.709829665326704291e-03
4.107500000000000040e-01	2.998844753736460422e+00	2.766429069583903680e-03
4.133333332999999943e-01	2.998820724070164090e+00	2.823029116751841604e-03
4.159166666999999928e-01	2.998796125939759527e+00	2.880895264328910393e-03
4.184999999999999831e-01	2.998771536849902386e+00	2.938762060894353940e-03
4.210833332999999734e-01	2.998746380149633683e+00	2.997892256145409835e-03
4.236666667000000275e-01	2.998721233932934105e+00	3.057023112156398176e-03
4.262500000000000178e-01	2.998695517971948554e+00	3.117414259730206735e-03
4.288333333000000080e-01	2.998669813946067464e+00	3.177806090343421146e-03
4.314166667000000066e-01	2.998643542054480804e+00	3.239454775585574181e-03
4.339999999999999969e-01	2.998617279557755033e+00	3.301104167210505442e-03
4.365833332999999872e-01	2.998590451085870079e+00	3.364006665690547505e-03
4.391666666999999857e-01	2.998563633476592827e+00	3.426909887802112760e-03
4.417499999999999760e-01	2.998536247794078680e+00	3.491062167276441468e-03
4.443333333000000218e-01	2.998508875449945599e+00	3.555215205921947921e-03
4.469166667000000204e-01	2.998480934946320176e+00	3.620613050131644885e-03
4.495000000000000107e-01	2.998453008264650332e+00	3.686011701422477280e-03
4.520833333000000009e-01	2.998424514349655290e+00	3.752650804856690579e-03
4.546666666999999995e-01	2.998396033747595890e+00	3.819290751326557317e-03
4.572499999999999898e-01	2.998366987850052290e+00	3.887166664392598722e-03
4.598333332999999801e-01	2.998337955763712426e+00	3.955043447648266645e-03
4.624166666999999786e-01	2.998308358330271872e+00	4.024151525232723750e-03
4.650000000000000244e-01	2.998278775213583547e+00	4.093260506963548005e-03
4.675833333000000147e-01	2.998248627708292258e+00	4.163595931878414681e-03
4.701666667000000133e-01	2.998218496032304170e+00	4.233932292558863567e-03
4.727500000000000036e-01	2.998187801935626950e+00	4.305490054796242555e-03
4.753333332999999938e-01	2.998157122187509849e+00	4.377048776995003630e-03
4.779166666999999924e-01	2.998125881994342823e+00	4.449823586988865820e-03
4.804999999999999827e-01	2.998094657675527852e+00	4.522599374897496270e-03
4.830833332999999730e-01	2.998062872893684006e+00	4.596585622553320781e-03
4.856666667000000270e-01	2.998031105518428330e+00	4.670572874678574800e-03
4.882500000000000173e-01	2.997998780668016394e+00	4.745764661996915157e-03
4.908333333000000076e-01	2.997966472762574774e+00	4.820957486317379442e-03
4.934166667000000062e-01	2.997933609375105668e+00	4.897348643429625704e-03
4.959999999999999964e-01	2.997900762476791492e+00	4.973740868499578610e-03
4.985833332999999867e-01	2.997867362093923571e+00	5.051324939243794117e-03
5.011666666999999853e-01	2.997833980750004290e+00	5.128910109848803210e-03
5.037500000000000311e-01	2.997800046923067896e+00	5.207680391517078428e-03
5.063333332999999659e-01	2.997766132690380392e+00	5.286451819125349318e-03
5.089166667000000199e-01	2.997731666980703036e+00	5.366401450555590910e-03
5.114999999999999547e-01	2.997697221425781322e+00	5.446352280947686780e-03
5.140833333000000005e-01	2.997662228404889273e+00	5.527474303109520225e-03
5.166666667000000546e-01	2.997627256104266280e+00	5.608597583021271774e-03
5.192499999999999893e-01	2.997591736354426661e+00	5.690885019494047563e-03
5.218333333000000351e-01	2.997556235895211252e+00	5.773173779321504398e-03
5.244166666999999782e-01	2.997520194009471339e+00	5.856619662132587015e-03
5.270000000000000240e-01	2.997484171989183821e+00	5.940066923888521165e-03
5.295833332999999588e-01	2.997447606570649015e+00	6.024664288667073639e-03
5.321666667000000128e-01	2.997411062596782028e+00	6.109263082992335420e-03
5.347499999999999476e-01	2.997373980257540094e+00	6.195004924027861654e-03
5.373333332999999934e-01	2.997336918946655882e+00	6.280748256550588993e-03
5.399166667000000475e-01	2.997299318308304539e+00	6.367627600249581646e-03
5.424999999999999822e-01	2.997261741286138648e+00	6.454508492396739128e-03
5.450833333000000280e-01	2.997223627979260563e+00	6.542518376673655579e-03
5.476666666999999711e-01	2.997185537880171058e+00	6.630529856362318321e-03
5.502500000000000169e-01	2.997146914542168972e+00	6.719663255062745082e-03
5.528333332999999516e-01	2.997108313007353697e+00	6.808798294962816779e-03
5.554166667000000057e-01	2.997069181280024530e+00	6.899048030284562691e-03
5.580000000000000515e-01	2.997030074954961876e+00	6.989299449996875732e-03
5.605833332999999863e-01	2.996990438484100849e+00	7.080658212490254649e-03
5.631666667000000404e-01	2.996950827018123764e+00	7.172018713452080023e-03
5.657499999999999751e-01	2.996910689453795573e+00	7.264479115522543690e-03
5.683333333000000209e-01	2.996870577500347022e+00	7.356941316142379290e-03
5.709166666999999640e-01	2.996829941496507388e+00	7.450495908008071197e-03
5.735000000000000098e-01	2.996789331712294668e+00	7.544052345529327248e-03
5.760833332999999445e-01	2.996748199924604172e+00	7.638693548224486859e-03
5.786666666999999986e-01	2.996707094968104723e+00	7.733336644036409649e-03
5.812500000000000444e-01	2.996665472053323676e+00	7.829056757475832962e-03
5.838333332999999792e-01	2.996623875584162988e+00	7.924778824359296481e-03
5.864166667000000333e-01	2.996581763201148885e+00	8.021570110132108730e-03
5.889999999999999680e-01	2.996539677881163044e+00	8.118363430842025219e-03
5.915833333000000138e-01	2.996497079693134946e+00	8.216218222826292966e-03
5.941666666999999569e-01	2.996454508187352150e+00	8.314075110903403412e-03
5.967500000000000027e-01	2.996411425860551425e+00	8.412985779158107386e-03
5.993333333000000485e-01	2.996368372837395988e+00	8.511898599973395999e-03
6.019166666999999915e-01	2.996324811040092850e+00	8.611857520171189648e-03
6.045000000000000373e-01	2.996281278170182194e+00	8.711818664681882096e-03
6.070833332999999721e-01	2.996237237572569878e+00	8.812818241193960678e-03
6.096666667000000261e-01	2.996193229527797985e+00	8.913820099075672396e-03
6.122499999999999609e-01	2.996148714801540880e+00	9.015852751983653712e-03
6.148333333000000067e-01	2.996104232255446753e+00	9.117887751870848434e-03
6.174166666999999498e-01	2.996059248073426939e+00	9.220945928153322785e-03
6.199999999999999956e-01	2.996014294700712455e+00	9.324006523720496792e-03
6.225833333000000414e-01	2.995968841736059929e+00	9.428082682991395166e-03
6.251666666999999844e-01	2.995923421211088122e+00	9.532161318281297951e-03
6.277500000000000302e-01	2.995877503136229247e+00	9.637247904804892296e-03
6.303333332999999650e-01	2.995831619132819590e+00	9.742337024093990910e-03
6.329166667000000190e-01	2.995785239618921736e+00	9.848426468988263557e-03
6.354999999999999538e-01	2.995738894809735431e+00	9.954518513388656981e-03
6.380833332999999996e-01	2.995692057527110208e+00	1.006160326465623325e-02
6.406666667000000537e-01	2.995645254583438000e+00	1.016869067901228670e-02
6.432499999999999885e-01	2.995597963200205438e+00	1.027676317145726458e-02
6.458333333000000342e-01	2.995550704791307695e+00	1.038483839763089563e-02
6.484166666999999773e-01	2.995502959973690427e+00	1.049389108335294085e-02
6.510000000000000231e-01	2.995455251766378169e+00	1.060294655635186933e-02
6.535833332999999579e-01	2.995407059178269105e+00	1.071297189032588068e-02
6.561666667000000119e-01	2.995358901837660959e+00	1.082300008936669389e-02
6.587499999999999467e-01	2.995310262141349877e+00	1.093399058113275410e-02
6.613333332999999925e-01	2.995261660330140518e+00	1.104498400159653788e-02
6.639166667000000466e-01	2.995212578185587837e+00	1.115693218655958163e-02
6.664999999999999813e-01	2.995163534564269092e+00	1.126888336772701241e-02
6.690833333000000271e-01	2.995114012629493949e+00	1.138178183867236994e-02
6.716666666999999702e-01	2.995064528856354436e+00	1.149468337061435030e-02
6.742500000000000160e-01	2.995014570786653785e+00	1.160852475674728664e-02
6.768333332999999508e-01	2.994964650517669025e+00	1.172236927887598118e-02
6.794166667000000048e-01	2.994914257966245330e+00	1.183714627726331625e-02
6.820000000000000506e-01	2.994863906854954738e+00	1.195192648103486112e-02
6.845833332999999854e-01	2.994813083473286230e+00	1.206763186444492243e-02
6.871666667000000395e-01	2.994762301170915908e+00	1.218334051842441881e-02
